KEV,INTENSITY
0.37773,4.16546
0.38513,4.11219
0.39254,4.05905
0.39995,4.01246
0.40735,3.96225
0.41476,3.91322
0.42217,3.86467
0.42957,3.81792
0.43698,3.77159
0.44439,3.72737
0.45179,3.68787
0.45920,3.64164
0.46660,3.6011
0.47401,3.56289
0.48142,3.52187
0.48882,3.47554
0.49623,3.44765
0.50364,3.41066
0.51104,3.37722
0.51845,3.33837
0.52586,3.30873
0.53326,3.28451
0.54067,3.24562
0.54807,3.22306
0.55548,3.18696
0.56289,3.16333
0.57029,3.13342
0.57770,3.11442
0.58511,3.0862
0.59251,3.06856
0.59992,3.04006
0.60733,3.02062
0.61473,2.99584
0.62214,2.96628
0.62955,2.94883
0.63695,2.93222
0.64436,2.92533
0.65176,2.8771
0.65917,2.86713
0.66658,2.84448
0.67398,2.84026
0.68139,2.82341
0.68880,2.79375
0.69620,2.77626
0.70361,2.75769
0.71102,2.73305
0.71842,2.7354
0.72583,2.72647
0.73324,2.69231
0.74064,2.68524
0.74805,2.66248
0.75545,2.66014
0.76286,2.65187
0.77027,2.61961
0.77767,2.6064
0.78508,2.60605
0.79249,2.57259
0.79989,2.58075
0.80730,2.56627
0.81471,2.52365
0.82211,2.53455
0.82952,2.5358
0.83693,2.52575
0.84433,2.51117
0.85174,2.52887
0.85914,2.50116
0.86655,2.49346
0.87396,2.48247
0.88136,2.47253
0.88877,2.46358
0.89618,2.44787
0.90358,2.43259
0.91099,2.43597
0.91840,2.43676
0.92580,2.42637
0.93321,2.41083
0.94061,2.40814
0.94802,2.39783
0.95543,2.40438
0.96283,2.38934
0.97024,2.38402
0.97765,2.37846
0.98505,2.37075
0.99246,2.37293
0.99987,2.34278
1.00727,2.31421
1.01468,2.28428
1.02209,2.26565
1.02949,2.26838
1.03690,2.27819
1.04430,2.28395
1.05171,2.30608
1.05912,2.31532
1.06652,2.30508
1.07393,2.29222
1.08134,2.26323
1.08874,2.27296
1.09615,2.27964
1.10356,2.24683
1.11096,2.2473
1.11837,2.21417
1.12578,2.23257
1.13318,2.23614
1.14059,2.22181
1.14799,2.20818
1.15540,2.20025
1.16281,2.17028
1.17021,2.17569
1.17762,2.17421
1.18503,2.17207
1.19243,2.13717
1.19984,2.11793
1.20725,2.12792
1.21465,2.11354
1.22206,2.10834
1.22947,2.08039
1.23687,2.1078
1.24428,2.06912
1.25168,2.08623
1.25909,2.05144
1.26650,2.06346
1.27390,2.0457
1.28131,2.0556
1.28872,2.0391
1.29612,2.01995
1.30353,2.00363
1.31094,2.01695
1.31834,2.01595
1.32575,1.97063
1.33316,1.97475
1.34056,1.9541
1.34797,1.95868
1.35537,1.97922
1.36278,1.93005
1.37019,1.91746
1.37759,1.92787
1.38500,1.91713
1.39241,1.89704
1.39981,1.90798
1.40722,1.88136
1.41463,1.87941
1.42203,1.92672
1.42944,1.90046
1.43684,1.85434
1.44425,1.87492
1.45166,1.88146
1.45906,1.8912
1.46647,1.84744
1.47388,1.8686
1.48128,1.8202
1.48869,1.83794
1.49610,1.81956
1.50350,1.80962
1.51091,1.82108
1.51832,1.78463
1.52572,1.80322
1.53313,1.7688
1.54053,1.75004
1.54794,1.79211
1.55535,1.74467
1.56275,1.76146
1.57016,1.72344
1.57757,1.75203
1.58497,1.76453
1.59238,1.78727
1.59979,1.77158
1.60719,1.75059
1.61460,1.73652
1.62201,1.73937
1.62941,1.75829
1.63682,1.75042
1.64422,1.75528
1.65163,1.77972
1.65904,1.76008
1.66644,1.76507
1.67385,1.75568
1.68126,1.7902
1.68866,1.75673
1.69607,1.74201
1.70348,1.7925
1.71088,1.73156
1.71829,1.78013
1.72570,1.73935
1.73310,1.75254
1.74051,1.8012
1.74791,1.79509
1.75532,1.76746
1.76273,1.77387
1.77013,1.75511
1.77754,1.72871
1.78495,1.73151
1.79235,1.7471
1.79976,1.75032
1.80717,1.75432
1.81457,1.73154
1.82198,1.73725
1.82939,1.74191
1.83679,1.70402
1.84420,1.73921
1.85160,1.69124
1.85901,1.6777
1.86642,1.69159
1.87382,1.71399
1.88123,1.66172
1.88864,1.66514
1.89604,1.64636
1.90345,1.63315
1.91086,1.61566
1.91826,1.58893
1.92567,1.57274
1.93307,1.55278
1.94048,1.48129
1.94789,1.52038
1.95529,1.5307
1.96270,1.54911
1.97011,1.5429
1.97751,1.53907
1.98492,1.52965
1.99233,1.53351
1.99973,1.50748
2.00714,1.51052
2.01455,1.49888
2.02195,1.49188
2.02936,1.4928
2.03676,1.45479
2.04417,1.45913
2.05158,1.44652
2.05898,1.40093
2.06639,1.42469
2.07380,1.40625
2.08120,1.39274
2.08861,1.38025
2.09602,1.37835
2.10342,1.32106
2.11083,1.32865
2.11824,1.38139
2.12564,1.31028
2.13305,1.32605
2.14045,1.34698
2.14786,1.28041
2.15527,1.32814
2.16267,1.32832
2.17008,1.35089
2.17749,1.33202
2.18489,1.26268
2.19230,1.32844
2.19971,1.33234
2.20711,1.30842
2.21452,1.29131
2.22193,1.32313
2.22933,1.34215
2.23674,1.34291
2.24414,1.32348
2.25155,1.36045
2.25896,1.36113
2.26636,1.36612
2.27377,1.33883
2.28118,1.35574
2.28858,1.32728
2.29599,1.35705
2.30340,1.35911
2.31080,1.25186
2.31821,1.34003
2.32561,1.36342
2.33302,1.33452
2.34043,1.36802
2.34783,1.31493
2.35524,1.30592
2.36265,1.34083
2.37005,1.30863
2.37746,1.34294
2.38487,1.34159
2.39227,1.251665
2.39968,1.281524
2.40709,1.29283
2.41449,1.25996
2.42190,1.30629
2.42930,1.32851
2.43671,1.28092
2.44412,1.30316
2.45152,1.27673
2.45893,1.2914
2.46634,1.28538
2.47374,1.31479
2.48115,1.31172
2.48856,1.33156
2.49596,1.2776
2.50337,1.3415
2.51078,1.26501
2.51818,1.29215
2.52559,1.29696
2.53299,1.29236
2.54040,1.28486
2.54781,1.22343
2.55521,1.1681
2.56262,1.228864
2.57003,1.232119
2.57743,1.24234
2.58484,1.25859
2.59225,1.225264
2.59965,1.207945
2.60706,1.24936
2.61447,1.134743
2.62187,1.1783
2.62928,1.184084
2.63668,1.23507
2.64409,1.241295
2.65150,1.23907
2.65890,1.25275
2.66631,1.1365
2.67372,1.109387
2.68112,1.1489
2.68853,1.20876
2.69594,1.20071
2.70334,1.068696
2.71075,1.129059
2.71816,1.157518
2.72556,1.077466
2.73297,1.085579
2.74037,1.066729
2.74778,1.126354
2.75519,1.124069
2.76259,1.097807
2.77000,1.170294
2.77741,1.035349
2.78481,1.071604
2.79222,1.038315
2.79963,1.055034
2.80703,1.021982
2.81444,1.01538
2.82184,1.061547
2.82925,1.050908
2.83666,1.098333
2.84406,1.028027
2.85147,1.030708
2.85888,1.05815
2.86628,1.035924
2.87369,1.116714
2.88110,1.008636
2.88850,1.005441
2.89591,1.043149
2.90332,0.96582
2.91072,0.939367
2.91813,0.991443
2.92553,0.902421
2.93294,1.025588
2.94035,1.068884
2.94775,1.02407
2.95516,1.074568
2.96257,1.035198
2.96997,0.99284
2.97738,1.020363
2.98479,1.018852
2.99219,1.013931
2.99960,1.010831
3.00701,1.043532
3.01441,1.042074
3.02182,1.07986
3.02922,1.05298
3.03663,1.051147
3.04404,1.01788
3.05144,1.025242
3.05885,1.047176
3.06626,1.047238
3.07366,1.09591
3.08107,1.04902
3.08848,1.078699
3.09588,1.078317
3.10329,1.093979
3.11070,1.059982
3.11810,1.11756
3.12551,1.05127
3.13291,1.136739
3.14032,1.130603
3.14773,1.128784
3.15513,1.158609
3.16254,1.136197
3.16995,1.145071
3.17735,1.174343
3.18476,1.221345
3.19217,1.25549
3.19957,1.250704
3.20698,1.3281
3.21439,1.291174
3.22179,1.27183
3.22920,1.28376
3.23660,1.32313
3.24401,1.342
3.25142,1.39677
3.25882,1.35034
3.26623,1.40476
3.27364,1.44386
3.28104,1.40774
3.28845,1.41316
3.29586,1.40468
3.30326,1.43451
3.31067,1.45133
3.31807,1.47858
3.32548,1.44912
3.33289,1.41522
3.34029,1.49247
3.34770,1.4682
3.35511,1.47963
3.36251,1.4965
3.36992,1.53158
3.37733,1.5366
3.38473,1.53156
3.39214,1.53348
3.39955,1.51795
3.40695,1.60404
3.41436,1.6448
3.42176,1.55984
3.42917,1.58861
3.43658,1.66385
3.44398,1.65364
3.45139,1.66628
3.45880,1.71153
3.46620,1.77112
3.47361,1.74705
3.48102,1.79601
3.48842,1.81038
3.49583,1.85263
3.50324,1.91817
3.51064,1.943
3.51805,1.96199
3.52545,2.00908
3.53286,2.04462
3.54027,2.05007
3.54767,2.08737
3.55508,2.11447
3.56249,2.16548
3.56989,2.17739
3.57730,2.19544
3.58471,2.23099
3.59211,2.27607
3.59952,2.2889
3.60693,2.31449
3.61433,2.313
3.62174,2.35544
3.62914,2.34941
3.63655,2.36206
3.64396,2.3924
3.65136,2.40548
3.65877,2.39137
3.66618,2.419
3.67358,2.42412
3.68099,2.41437
3.68840,2.41712
3.69580,2.41619
3.70321,2.40949
3.71061,2.4072
3.71802,2.4162
3.72543,2.38943
3.73283,2.37999
3.74024,2.36685
3.74765,2.36283
3.75505,2.34917
3.76246,2.31113
3.76987,2.31168
3.77727,2.27784
3.78468,2.21972
3.79209,2.18007
3.79949,2.14249
3.80690,2.12796
3.81430,2.16328
3.82171,2.1554
3.82912,2.12271
3.83652,2.11871
3.84393,2.10065
3.85134,2.05994
3.85874,2.05843
3.86615,2.04928
3.87356,1.99234
3.88096,1.97301
3.88837,1.9376
3.89578,1.97384
3.90318,1.9415
3.91059,1.9171
3.91799,1.8764
3.92540,1.85593
3.93281,1.83606
3.94021,1.82106
3.94762,1.82931
3.95503,1.8381
3.96243,1.8098
3.96984,1.81891
3.97725,1.7969
3.98465,1.77033
3.99206,1.80496
3.99947,1.7745
4.00687,1.76333
4.01428,1.7375
4.02168,1.75012
4.02909,1.74306
4.03650,1.76923
4.04390,1.74959
4.05131,1.73711
4.05872,1.69795
4.06612,1.65504
4.07353,1.69897
4.08094,1.67302
4.08834,1.63618
4.09575,1.63749
4.10316,1.61405
4.11056,1.58451
4.11797,1.59512
4.12537,1.56565
4.13278,1.55095
4.14019,1.53732
4.14759,1.54898
4.15500,1.51216
4.16241,1.49709
4.16981,1.43502
4.17722,1.473
4.18463,1.44367
4.19203,1.433
4.19944,1.44958
4.20684,1.38269
4.21425,1.43229
4.22166,1.34552
4.22906,1.33111
4.23647,1.33559
4.24388,1.3896
4.25128,1.43448
4.25869,1.39803
4.26610,1.41029
4.27350,1.35226
4.28091,1.38927
4.28832,1.43463
4.29572,1.479
4.30313,1.49502
4.31053,1.51287
4.31794,1.48421
4.32535,1.56303
4.33275,1.54429
4.34016,1.56423
4.34757,1.6074
4.35497,1.6802
4.36238,1.65811
4.36979,1.6972
4.37719,1.70479
4.38460,1.73684
4.39201,1.77052
4.39941,1.77956
4.40682,1.82389
4.41422,1.82414
4.42163,1.83069
4.42904,1.87274
4.43644,1.88362
4.44385,1.89601
4.45126,1.8915
4.45866,1.93608
4.46607,1.91447
4.47348,1.96397
4.48088,1.91201
4.48829,1.97204
4.49570,1.96552
4.50310,1.97196
4.51051,1.97602
4.51791,1.94103
4.52532,1.94901
4.53273,1.96612
4.54013,1.95877
4.54754,1.96205
4.55495,1.94598
4.56235,1.96079
4.56976,1.94762
4.57717,1.92755
4.58457,1.91477
4.59198,1.91706
4.59939,1.86108
4.60679,1.87334
4.61420,1.85154
4.62160,1.85387
4.62901,1.80439
4.63642,1.79213
4.64382,1.80459
4.65123,1.77075
4.65864,1.6997
4.66604,1.68817
4.67345,1.74228
4.68086,1.70831
4.68826,1.65188
4.69567,1.64017
4.70307,1.62675
4.71048,1.56382
4.71789,1.54097
4.72529,1.54978
4.73270,1.49461
4.74011,1.43635
4.74751,1.39888
4.75492,1.46237
4.76233,1.48185
4.76973,1.46865
4.77714,1.48217
4.78455,1.4632
4.79195,1.43924
4.79936,1.47022
4.80676,1.47174
4.81417,1.44229
4.82158,1.45229
4.82898,1.48224
4.83639,1.40385
4.84380,1.47835
4.85120,1.46354
4.85861,1.4703
4.86602,1.47102
4.87342,1.42387
4.88083,1.46563
4.88824,1.48119
4.89564,1.43447
4.90305,1.44723
4.91045,1.46031
4.91786,1.4155
4.92527,1.41653
4.93267,1.47296
4.94008,1.44764
4.94749,1.49707
4.95489,1.47851
4.96230,1.46032
4.96971,1.47046
4.97711,1.4601
4.98452,1.43976
4.99193,1.48523
4.99933,1.5008
5.00674,1.42272
5.01414,1.46202
5.02155,1.39978
5.02896,1.44944
5.03636,1.41127
5.04377,1.42042
5.05118,1.44985
5.05858,1.4288
5.06599,1.43581
5.07340,1.43382
5.08080,1.40321
5.08821,1.42671
5.09561,1.41111
5.10302,1.47683
5.11043,1.39378
5.11783,1.42605
5.12524,1.42262
5.13265,1.46145
5.14005,1.38931
5.14746,1.5089
5.15487,1.45209
5.16227,1.47568
5.16968,1.47946
5.17709,1.46998
5.18449,1.48561
5.19190,1.53294
5.19930,1.5249
5.20671,1.53156
5.21412,1.56246
5.22152,1.57477
5.22893,1.58311
5.23634,1.60866
5.24374,1.61223
5.25115,1.66471
5.25856,1.70327
5.26596,1.67368
5.27337,1.66997
5.28078,1.72566
5.28818,1.72742
5.29559,1.76136
5.30299,1.76936
5.31040,1.81854
5.31781,1.77249
5.32521,1.8443
5.33262,1.86079
5.34003,1.84851
5.34743,1.8418
5.35484,1.86101
5.36225,1.86459
5.36965,1.83831
5.37706,1.89516
5.38447,1.90341
5.39187,1.88009
5.39928,1.87669
5.40668,1.90846
5.41409,1.8921
5.42150,1.88283
5.42890,1.86452
5.43631,1.89661
5.44372,1.91704
5.45112,1.89836
5.45853,1.88767
5.46594,1.90641
5.47334,1.84052
5.48075,1.87054
5.48816,1.87205
5.49556,1.8366
5.50297,1.83184
5.51037,1.83928
5.51778,1.81027
5.52519,1.81069
5.53259,1.78656
5.54000,1.79022
5.54741,1.76826
5.55481,1.79611
5.56222,1.75472
5.56963,1.7503
5.57703,1.7285
5.58444,1.73255
5.59184,1.75437
5.59925,1.72188
5.60666,1.71524
5.61406,1.74178
5.62147,1.71144
5.62888,1.71925
5.63628,1.73925
5.64369,1.7665
5.65110,1.75737
5.65850,1.7681
5.66591,1.81243
5.67332,1.79732
5.68072,1.83409
5.68813,1.81312
5.69553,1.8246
5.70294,1.86023
5.71035,1.85096
5.71775,1.90187
5.72516,1.93542
5.73257,1.95017
5.73997,1.95412
5.74738,1.92807
5.75479,1.97727
5.76219,1.9542
5.76960,1.99683
5.77701,1.98429
5.78441,2.02651
5.79182,2.0816
5.79922,2.12661
5.80663,2.13921
5.81404,2.14606
5.82144,2.15703
5.82885,2.17487
5.83626,2.1746
5.84366,2.19037
5.85107,2.21961
5.85848,2.2209
5.86588,2.20653
5.87329,2.22154
5.88070,2.24137
5.88810,2.23836
5.89551,2.25043
5.90291,2.25776
5.91032,2.25319
5.91773,2.27458
5.92513,2.25633
5.93254,2.27412
5.93995,2.26005
5.94735,2.27177
5.95476,2.24797
5.96217,2.25011
5.96957,2.24143
5.97698,2.26807
5.98439,2.25588
5.99179,2.26506
5.99920,2.25366
6.00660,2.24766
6.01401,2.24158
6.02142,2.26388
6.02882,2.24576
6.03623,2.25707
6.04364,2.24285
6.05104,2.25573
6.05845,2.28424
6.06586,2.27623
6.07326,2.26565
6.08067,2.26112
6.08807,2.27945
6.09548,2.30649
6.10289,2.33069
6.11029,2.32291
6.11770,2.35177
6.12511,2.36993
6.13251,2.40109
6.13992,2.42114
6.14733,2.44483
6.15473,2.47559
6.16214,2.50395
6.16955,2.51684
6.17695,2.55051
6.18436,2.57564
6.19176,2.59835
6.19917,2.62984
6.20658,2.66031
6.21398,2.69579
6.22139,2.72579
6.22880,2.75916
6.23620,2.76397
6.24361,2.79971
6.25102,2.83065
6.25842,2.84735
6.26583,2.87488
6.27324,2.91053
6.28064,2.92678
6.28805,2.94214
6.29545,2.95401
6.30286,2.97438
6.31027,2.99399
6.31767,3.00592
6.32508,3.02494
6.33249,3.03532
6.33989,3.05663
6.34730,3.07281
6.35471,3.07676
6.36211,3.07158
6.36952,3.08013
6.37693,3.09016
6.38433,3.08958
6.39174,3.0959
6.39914,3.0917
6.40655,3.08709
6.41396,3.08592
6.42136,3.0755
6.42877,3.06879
6.43618,3.05689
6.44358,3.05549
6.45099,3.04696
6.45840,3.02998
6.46580,3.01601
6.47321,3.00473
6.48061,2.97791
6.48802,2.96676
6.49543,2.9379
6.50283,2.91516
6.51024,2.9055
6.51765,2.87848
6.52505,2.85124
6.53246,2.82808
6.53987,2.80356
6.54727,2.77807
6.55468,2.74953
6.56209,2.71783
6.56949,2.69105
6.57690,2.66703
6.58430,2.62361
6.59171,2.59333
6.59912,2.56946
6.60652,2.54363
6.61393,2.50399
6.62134,2.48446
6.62874,2.46491
6.63615,2.41914
6.64356,2.39126
6.65096,2.32279
6.65837,2.31327
6.66578,2.29558
6.67318,2.29297
6.68059,2.33225
6.68799,2.36237
6.69540,2.35945
6.70281,2.36142
6.71021,2.36924
6.71762,2.37409
6.72503,2.36877
6.73243,2.3972
6.73984,2.42738
6.74725,2.44353
6.75465,2.44487
6.76206,2.4713
6.76947,2.47734
6.77687,2.50952
6.78428,2.52772
6.79168,2.53992
6.79909,2.54779
6.80650,2.57072
6.81390,2.58954
6.82131,2.62007
6.82872,2.61717
6.83612,2.65046
6.84353,2.6615
6.85094,2.67739
6.85834,2.69269
6.86575,2.70369
6.87316,2.71013
6.88056,2.72281
6.88797,2.72888
6.89537,2.73348
6.90278,2.74485
6.91019,2.75158
6.91759,2.74863
6.92500,2.75348
6.93241,2.76004
6.93981,2.75548
6.94722,2.74819
6.95463,2.75371
6.96203,2.76024
6.96944,2.74324
6.97684,2.75763
6.98425,2.74509
6.99166,2.73437
6.99906,2.72586
7.00647,2.70582
7.01388,2.69319
7.02128,2.69406
7.02869,2.67103
7.03610,2.65851
7.04350,2.64265
7.05091,2.63246
7.05832,2.60947
7.06572,2.60639
7.07313,2.56309
7.08053,2.54458
7.08794,2.52738
7.09535,2.51573
7.10275,2.49191
7.11016,2.46354
7.11757,2.43251
7.12497,2.4196
7.13238,2.37823
7.13979,2.36311
7.14719,2.32719
7.15460,2.29524
7.16201,2.25614
7.16941,2.23713
7.17682,2.20665
7.18422,2.15765
7.19163,2.15254
7.19904,2.09934
7.20644,2.08212
7.21385,2.02386
7.22126,2.01671
7.22866,1.96965
7.23607,1.91799
7.24348,1.88073
7.25088,1.84137
7.25829,1.80901
7.26570,1.7644
7.27310,1.73437
7.28051,1.74138
7.28791,1.68346
7.29532,1.68307
7.30273,1.63927
7.31013,1.61043
7.31754,1.5845
7.32495,1.50517
7.33235,1.51723
7.33976,1.55625
7.34717,1.51407
7.35457,1.49142
7.36198,1.49577
7.36939,1.46556
7.37679,1.4351
7.38420,1.42069
7.39160,1.45791
7.39901,1.48116
7.40642,1.48827
7.41382,1.4314
7.42123,1.43424
7.42864,1.50821
7.43604,1.47333
7.44345,1.47514
7.45086,1.50286
7.45826,1.48344
7.46567,1.51888
7.47307,1.47645
7.48048,1.55142
7.48789,1.56365
7.49529,1.52636
7.50270,1.55428
7.51011,1.53269
7.51751,1.5431
7.52492,1.57945
7.53233,1.53361
7.53973,1.60012
7.54714,1.54349
7.55455,1.57109
7.56195,1.5577
7.56936,1.54978
7.57676,1.54707
7.58417,1.47247
7.59158,1.52914
7.59898,1.41923
7.60639,1.41229
7.61380,1.48157
7.62120,1.55714
7.62861,1.59127
7.63602,1.5511
7.64342,1.5443
7.65083,1.59069
7.65824,1.53732
7.66564,1.57746
7.67305,1.56002
7.68045,1.55844
7.68786,1.49981
7.69527,1.46348
7.70267,1.48091
7.71008,1.48814
7.71749,1.42209
7.72489,1.41597
7.73230,1.43554
7.73971,1.37171
7.74711,1.43599
7.75452,1.34668
7.76193,1.32479
7.76933,1.268716
7.77674,1.35661
7.78414,1.24006
7.79155,1.23683
7.79896,1.30802
7.80636,1.208554
7.81377,1.22563
7.82118,1.144219
7.82858,1.164067
7.83599,1.1788
7.84340,1.154808
7.85080,1.091039
7.85821,1.109638
7.86561,1.096834
7.87302,1.090689
7.88043,1.065815
7.88783,1.029014
7.89524,1.005774
7.90265,0.924296
7.91005,0.893786
7.91746,0.908378
7.92487,1.054493
7.93227,0.962194
7.93968,0.989217
7.94709,1.002165
7.95449,0.919346
7.96190,0.862121
7.96930,0.930605
7.97671,0.975124
7.98412,0.949036
7.99152,0.930697
7.99893,0.926581
8.00634,1.090592
8.01374,1.028587
8.02115,1.049742
8.02856,0.915746
8.03596,0.986325
8.04337,0.927014
8.05078,1.09077
8.05818,0.997409
8.06559,1.001404
8.07299,0.966012
8.08040,1.004708
8.08781,0.884782
8.09521,0.783526
8.10262,0.896559
8.11003,0.959712
8.11743,0.860368
8.12484,0.953103
8.13225,0.954667
8.13965,0.94486
8.14706,0.921644
8.15447,0.853421
8.16187,0.904681
8.16928,0.866183
8.17668,0.885225
8.18409,0.868581
8.19150,0.872193
8.19890,0.917431
8.20631,0.875165
8.21372,0.90306
8.22112,0.805265
8.22853,0.86504
8.23594,0.950008
8.24334,0.885888
8.25075,0.918224
8.25816,0.846747
8.26556,0.892781
8.27297,0.920549
8.28037,0.859673
8.28778,0.884815
8.29519,0.791878
8.30259,0.845405
8.31000,0.842983
8.31741,0.83251
8.32481,0.765474
8.33222,0.859317
8.33963,0.849629
8.34703,0.857561
8.35444,0.932384
8.36184,0.907749
8.36925,0.829217
8.37666,0.788391
8.38406,0.845963
8.39147,0.874978
8.39888,0.846533
8.40628,0.911725
8.41369,0.984541
8.42110,0.785199
8.42850,0.962319
8.43591,0.821106
8.44332,0.822312
8.45072,0.71918
8.45813,0.827119
8.46553,0.846745
8.47294,0.816528
8.48035,0.828597
8.48775,0.643484
8.49516,0.94416
8.50257,0.799717
8.50997,0.776864
8.51738,0.786763
8.52479,0.748058
8.53219,0.85554
8.53960,0.70861
8.54701,0.649711
8.55441,0.79781
8.56182,0.757218
8.56922,0.750177
8.57663,0.717955
8.58404,0.618985
8.59144,0.757868
8.59885,0.772803
8.60626,0.940589
8.61366,0.826903
8.62107,0.741379
8.62848,0.839508
8.63588,0.767786
8.64329,0.771273
8.65070,0.76479
8.65810,0.786077
8.66551,0.826412
8.67291,0.758095
8.68032,0.731593
8.68773,0.776388
8.69513,0.867789
8.70254,0.734687
8.70995,0.686272
8.71735,0.731593
8.72476,0.869907
8.73217,0.727799
8.73957,0.5
8.74698,0.822996
8.75439,0.836958
8.76179,0.664578
8.76920,0.839611
8.77660,0.707387
8.78401,0.721981
8.79142,0.719099
8.79882,0.765915
8.80623,0.5
8.81364,0.809489
8.82104,0.786555
8.82845,0.73549
8.83586,0.808612
8.84326,0.621981
8.85067,0.853519
8.85807,0.590848
8.86548,0.752296
8.87289,0.840491
8.88029,0.767366
8.88770,0.719783
8.89511,0.737585
8.90251,0.782529
8.90992,0.866716
8.91733,0.695334
8.92473,0.782187
8.93214,0.801836
8.93955,0.818301
8.94695,0.756338
8.95436,0.726121
8.96176,0.742395
8.96917,0.7154
8.97658,0.740927
8.98398,0.682301
8.99139,0.708948
8.99880,0.713379
9.00620,0.5
9.01361,0.840829
9.02102,0.788867
9.02842,0.692581
9.03583,0.763815
9.04324,0.684856
9.05064,0.808612
9.05805,0.836806
9.06545,0.776636
9.07286,0.859319
9.08027,0.759318
9.08767,0.76689
9.09508,0.799469
9.10249,0.791878
9.10989,0.701588
9.11730,0.803252
9.12471,0.827572
9.13211,0.661775
9.13952,0.675358
9.14693,0.839165
9.15433,0.755099
9.16174,0.7587
9.16914,0.721297
9.17655,0.5
9.18396,0.855542
9.19136,0.701231
9.19877,0.720322
9.20618,0.719881
9.21358,0.758972
9.22099,0.5
9.22840,0.5
9.23580,0.787416
9.24321,0.622877
9.25061,0.712156
9.25802,0.727453
9.26543,0.793999
9.27283,0.636594
9.28024,0.610383
9.28765,0.692774
9.29505,0.70916
9.30246,0.574269
9.30987,0.630013
9.31727,0.681157
9.32468,0.752198
9.33209,0.809508
9.33949,0.5
9.34690,0.732568
9.35430,0.809408
9.36171,0.744166
9.36912,0.745245
9.37652,0.649281
9.38393,0.710026
9.39134,0.749281
9.39874,0.69735
9.40615,0.803252
9.41356,0.695086
9.42096,0.662325
9.42837,0.823225
9.43578,0.783278
9.44318,0.579388
9.45059,0.770839
9.45799,0.727096
9.46540,0.813379
9.47281,0.860118
9.48021,0.823337
9.48762,0.788996
9.49503,0.734025
9.50243,0.675165
9.50984,0.684875
9.51725,0.70916
9.52465,0.754203
9.53206,0.76689
9.53947,0.836267
9.54687,0.746745
9.55428,0.762668
